33.2913	31.1577
34.4383	31.1641
35.5852	88.3165
36.7307	100.459
37.8774	107.41
39.0239	102.234
40.1703	72.7924
41.3165	84.9426
42.4627	91.8966
43.6087	114.462
44.7546	123.161
45.9003	112.778
47.0447	112.803
48.1902	109.357
49.3355	93.756
50.4808	93.4632
51.6259	85.1214
52.7708	72.1285
53.9157	55.2741
55.0591	70.605
56.2037	67.0654
57.3482	63.8072
58.4925	69.3586
59.6368	82.1265
60.7808	86.1845
61.9235	71.5162
63.0674	85.271
64.2111	90.1029
65.3546	111.131
66.4981	110.402
67.6414	129.995
68.7833	123.873
69.9264	140.863
71.0693	116.48
72.2121	115.177
73.3548	115.412
74.496	97.9533
75.6385	104.199
76.7808	109.131
77.9229	91.0812
79.0637	89.3165
80.2056	85.9383
81.3474	95.7474
82.489	104.188
83.6306	99.3189
84.7707	99.1984
85.9119	96.6886
87.0531	96.5056
88.1941	93.167
89.3337	86.7082
90.4745	101.322
91.6151	96.4346
92.7556	85.3679
93.8947	94.4883
95.035	89.659
96.1751	88.7064
97.3151	93.1577
98.4537	96.8579
99.5934	97.534
100.733	92.904
101.871	91.4039
103.011	79.1743
104.15	92.3151
105.289	92.3646
106.427	95.4563
107.566	92.3573
108.704	105.405
109.842	89.9963
110.98	102.307
112.118	86.9436
113.255	85.4259
114.393	83.8881
115.531	94.6286
116.668	93.7897
117.806	95.232
118.943	85.158
120.079	86.6138
121.217	95.7513
122.354	88.0589
123.49	94.9272
124.627	94.8972
125.764	94.8479
126.899	91.7212
128.035	96.2261
129.172	103.018
130.307	81.6025
131.443	82.3393
132.579	98.3452
133.714	89.205
134.85	100.647
135.984	97.5834
137.12	96.7886
138.255	89.1294
139.389	101.28
140.524	98.2067
141.658	88.2916
142.793	105.772
143.928	104.217
145.061	109.498
146.196	110.213
147.329	98.7725
148.463	117.721
149.597	107.044
150.73	97.1304
151.864	91.0122
152.996	104.606
154.13	100.008
155.262	91.6465
156.396	101.493
157.529	100.764
158.661	114.447
159.794	102.349
160.926	100.837
162.058	108.398
163.19	125.791
164.322	115.892
165.453	131.729
166.586	142.227
167.717	154.2
168.849	163.135
169.979	168.316
171.111	164.487
172.243	196.153
173.373	190.855
174.504	183.274
175.634	186.228
176.765	152.997
177.895	153.712
179.026	155.209
180.155	139.394
181.286	113.779
182.415	131.091
183.544	119.749
184.675	133.994
185.804	115.113
186.934	121.821
188.062	108.231
189.192	116.438
190.32	117.125
191.45	119.31
192.578	116.246
193.707	107.946
194.835	105.657
195.964	98.8786
197.092	106.323
198.219	100.269
199.348	113.637
200.475	108.292
201.603	102.965
202.73	114.072
203.858	115.504
204.985	116.946
206.112	114.651
207.239	115.305
208.366	107.752
209.493	118.01
210.619	117.867
211.745	114.045
212.873	111.744
213.998	96.8996
215.125	108.697
216.251	112.346
217.376	106.369
218.502	101.124
219.628	112.118
220.754	99.5323
221.879	103.945
223.003	110.602
224.129	104.734
225.254	104.743
226.378	121.664
227.504	131.881
228.628	142.057
229.752	137.534
230.877	133.073
232.001	124.984
233.124	123.155
234.249	121.309
235.372	119.448
236.495	116.128
237.62	109.534
238.743	109.582
239.866	104.474
240.99	101.535
242.112	94.876
243.235	105.112
244.358	95.5164
245.481	99.9133
246.603	91.8394
247.725	90.3747
248.848	99.9178
249.97	101.372
251.091	93.2867
252.214	102.842
253.335	105.051
254.457	113.123
255.578	96.9453
256.7	106.478
257.821	116.026
258.942	107.222
260.062	118.961
261.184	109.368
262.304	132.767
263.425	134.153
264.545	128.993
265.666	124.622
266.786	131.28
267.906	125.464
269.025	130.625
270.146	137.97
271.265	108.625
272.385	113.797
273.504	110.913
274.623	127.128
275.743	132.291
276.862	121.238
277.98	106.488
279.099	122.587
280.217	117.43
281.337	121.133
282.455	119.736
283.573	114.672
284.691	111.79
285.809	120.646
286.927	130.213
288.045	139.028
289.162	125.779
290.28	139.023
291.397	144.193
292.514	160.415
293.632	185.489
294.749	177.466
295.865	193.787
296.982	201.326
298.098	195.609
299.215	192.796
300.331	167.719
301.448	157.316
302.564	163.825
303.68	150.393
304.796	155.429
305.911	170.099
307.027	170.862
308.142	177.598
309.257	182.91
310.372	204.466
311.488	211.247
312.603	212.092
313.718	214.415
314.832	233.037
315.947	230.964
317.061	231.087
318.175	257.831
319.289	242.307
320.403	232.703
321.517	248.314
322.631	228.341
323.744	235.004
324.859	245.284
325.972	229.559
327.086	235.303
328.199	224.822
329.312	224.776
330.425	214.431
331.537	203.339
332.65	221.032
333.762	220.175
334.875	223.712
335.987	230.935
337.099	259.56
338.211	265.333
339.323	276.996
340.435	293.769
341.546	339.152
342.658	321.184
343.769	376.662
344.88	439.478
345.992	501.027
347.103	560.02
348.213	648.753
349.324	737.59
350.435	860.571
351.545	953.961
352.656	1168.92
353.766	1374.87
354.876	1676.6
355.986	2060.25
357.096	2073.81
358.206	1613.28
359.315	1040.81
360.425	605.97
361.534	413.916
362.644	303.857
363.752	282.312
364.861	249.237
365.97	220.703
367.078	214.855
368.187	195.19
369.296	194.405
370.404	180.426
371.512	178.02
372.621	187.206
373.729	164.522
374.837	169.475
375.944	153.494
377.051	148.402
378.158	159.213
379.266	163.456
380.373	148.145
381.48	138.635
382.588	134.942
383.695	144.991
384.801	139.174
385.908	136.208
387.013	129.583
388.12	138.015
389.226	122.721
390.333	139.05
391.439	119.626
392.545	134.688
393.651	150.538
394.755	152.771
395.861	154.213
396.966	163.437
398.072	156.813
399.177	163.772
400.282	143.597
401.386	157.773
402.491	160.561
403.595	185.485
404.7	169.733
405.805	202.425
406.908	225.039
408.012	229.065
409.116	247.31
410.22	290.474
411.324	338.725
412.427	408.413
413.531	526.463
414.634	731.81
415.738	1034.19
416.841	1602.35
417.943	2067.54
419.046	2268.89
420.149	1869.01
421.252	1246.11
422.353	731.827
423.456	441.676
424.558	316.504
425.661	249.299
426.762	210.287
427.864	211.623
428.966	179.083
430.068	169.314
431.168	175.934
432.27	148.479
433.371	152.883
434.473	135.84
435.573	152.84
436.674	125.74
437.775	144.136
438.875	126.373
439.975	128.544
441.076	130.041
442.175	135.816
443.276	135.904
444.376	138.128
445.476	141.79
446.575	129.07
447.675	125.62
448.775	126.457
449.873	133.737
450.973	129.574
452.072	137.562
453.17	125.44
454.27	115.407
455.369	118.243
456.466	127.535
457.565	137.596
458.663	129.807
459.761	131.374
460.86	122.156
461.957	132.294
463.055	135.916
464.154	112.896
465.25	131.577
466.348	127.981
467.446	130.163
468.542	133.809
469.64	132.432
470.736	128.166
471.833	138.284
472.931	141.9
474.026	144.064
475.123	147.67
476.219	136.876
477.316	143.378
478.411	164.29
479.507	160.697
480.604	156.373
481.699	154.92
482.795	151.284
483.889	148.344
484.985	158.338
486.08	159.676
487.175	168.208
488.271	168.133
489.365	155.151
490.46	165.159
491.554	160.785
492.649	152.08
493.743	149.812
494.838	164.012
495.931	171.039
497.026	173.77
498.119	166.495
499.213	162.806
500.306	167.001
501.4	158.404
502.493	166.985
503.587	144.891
504.679	157.009
505.773	153.349
506.865	148.207
507.958	146.618
509.05	147.906
510.143	157.061
511.235	151.337
512.328	167.664
513.419	166.235
514.512	175.446
515.603	188.885
516.696	180.988
517.787	191.528
518.879	201.366
519.97	219.755
521.06	241.053
522.152	241.865
523.243	287.429
524.334	293.987
525.424	276.348
526.516	276.392
527.606	245.827
528.695	216.677
529.786	213.852
530.876	185.503
531.967	173.535
533.056	178.649
534.145	163.797
535.236	178.781
536.325	158.786
537.415	166.51
538.504	162.135
539.592	149.286
540.682	164.245
541.77	163.637
542.86	150.242
543.948	153.192
545.036	145.399
546.125	146.102
547.213	150.339
548.301	155.302
549.39	156.756
550.477	149.005
551.564	156.982
552.653	145.697
553.74	148.666
554.827	132.296
555.915	125.899
557.002	123.062
558.089	128.097
559.176	136.727
560.263	133.209
561.349	118.947
562.436	129.026
563.522	129.029
564.608	126.83
565.695	137.487
566.781	133.806
567.867	152.305
568.952	137.923
570.039	149.996
571.124	141.359
572.209	147.713
573.295	147.627
574.38	167.477
575.465	163.074
576.549	166.523
577.635	185.659
578.719	182.767
579.804	211.848
580.888	205.295
581.973	230.594
583.057	238.083
584.141	214.474
585.225	236.996
586.309	232.007
587.393	233.399
588.476	202.922
589.559	181.613
590.642	177.975
591.727	167.297
592.809	151.693
593.892	146.651
594.975	138.747
596.057	143.49
597.141	137.696
598.223	134.781
599.305	145.273
600.387	131.949
601.469	145.993
602.552	127.709
603.634	124.813
604.716	120.475
605.797	123.121
606.878	146.03
607.959	131.933
609.042	130.472
610.123	129.773
611.204	131.226
612.284	132.716
613.365	129.315
614.445	130.073
615.526	123.086
616.607	146.827
617.688	121.62
618.768	136.982
619.847	141.896
620.927	140.532
622.007	135.648
623.086	137.723
624.166	126.507
625.245	141.185
626.326	137.749
627.405	133.652
628.484	135.849
629.563	131.7
630.641	152.713
631.72	127.458
632.799	137.217
633.877	148.383
634.955	130.17
636.033	140.667
637.111	151.188
638.189	129.535
639.267	147.119
640.345	154.917
641.424	139.556
642.501	133.257
643.578	148.649
644.656	143.684
645.733	155.583
646.81	153.571
647.887	146.748
648.963	144.848
650.04	149.212
651.116	152.768
652.193	147.074
653.269	153.295
654.345	162.332
655.421	151.744
656.497	153.159
657.573	156.721
658.649	157.485
659.724	157.534
660.8	153.334
661.875	156.838
662.951	158.206
664.026	148.313
665.101	147.555
666.176	156.625
667.25	176.203
668.325	176.791
669.398	184.362
670.473	163.183
671.547	166.525
672.621	176.157
673.695	172.521
674.769	174.503
675.843	166.749
676.917	173.676
677.99	172.244
679.064	181.252
680.137	176.964
681.211	170.528
682.284	170.313
683.357	180.513
684.428	174.798
685.501	176.802
686.574	170.546
687.646	172.602
688.719	198.154
689.791	172.371
690.863	188.801
691.935	195.563
693.006	174.053
694.078	191.936
695.15	200.118
696.222	193.762
697.293	208.054
698.364	230.583
699.436	228.348
700.506	215.842
701.577	220.543
702.648	224.549
703.719	222.348
704.789	244.801
705.86	227.451
706.929	207.392
707.999	244.147
709.07	235.087
710.14	224.015
711.21	219.124
712.28	223.146
713.348	226.535
714.418	229.962
715.487	219.046
716.557	205.326
717.626	205.83
718.694	191.968
719.763	197.194
720.832	186.881
721.901	180.096
722.969	169.986
724.037	189.807
725.106	162.638
726.174	165.353
727.241	182.332
728.31	179.593
729.378	171.445
730.445	166.044
731.512	168.14
732.58	163.429
733.647	166.881
734.715	172.362
735.781	154.652
736.848	184.601
737.915	172.299
738.982	172.271
740.048	181.133
741.115	172.337
742.182	162.882
743.247	152.059
744.313	143.937
745.38	165.812
746.445	170.62
747.511	169.289
748.577	165.919
749.641	157.092
750.707	179.687
751.773	176.308
752.837	175.635
753.902	189.284
754.968	176.263
756.032	157.775
757.097	183.001
758.162	182.287
759.225	186.375
760.29	170.693
761.355	167.33
762.418	172.872
763.482	177.743
764.547	163.454
765.609	187.428
766.673	177.839
767.736	171.626
768.8	170.849
769.864	174.151
770.926	191.108
771.99	169.879
773.052	164.393
774.115	157.565
775.178	155.493
776.24	147.234
777.303	166.163
778.364	159.84
779.427	167.795
780.489	146.582
781.551	141.036
782.613	144.325
783.674	155.061
784.736	129.92
785.797	153.511
786.859	140.592
787.919	146.605
788.981	152.59
790.041	132.887
791.102	142.154
792.164	133.211
793.224	129.68
794.285	141.634
795.344	142.212
796.405	140.14
797.465	140.765
798.525	142.738
799.585	128.639
800.645	145.363
801.704	141.975
802.764	150.599
803.823	144.445
804.883	129.59
805.942	136.14
807.001	157.421
808.06	148.094
809.118	140.808
810.177	139.505
811.235	141.478
812.294	144.725
813.352	145.957
814.411	131.237
815.469	142.547
816.527	135.221
817.585	139.86
818.643	151.782
819.7	149.052
820.757	145.703
821.815	135.101
822.872	131.862
823.93	143.958
824.986	140.047
826.043	138.109
827.1	143.488
828.157	144.164
829.214	149.462
830.27	134.701
831.326	141.941
832.383	136.574
833.438	151.973
834.495	144.147
835.55	145.69
836.606	145.18
837.662	135.873
838.717	141.883
839.772	145.863
840.828	122.436
841.883	141.196
842.939	139.238
843.993	145.323
845.048	155.443
846.103	142.8
847.157	146.931
848.211	149.055
849.266	146.458
850.32	149.873
851.374	147.887
852.429	148.581
853.482	154.657
854.536	152.667
855.589	136.547
856.643	151.363
857.696	135.229
858.749	143.302
859.803	136.547
860.856	137.828
861.909	155.879
862.961	152.425
864.015	144.331
865.067	145.036
866.119	155.876
867.172	141.844
868.224	134.443
869.276	137.75
870.328	145.768
871.38	148.459
872.432	149.848
873.483	139.801
874.534	154.558
875.586	139.671
876.638	158.302
877.689	166.854
878.739	139.964
879.79	158.688
880.842	160.708
881.892	143.299
882.943	147.944
883.993	144.506
885.043	147.058
886.094	155.618
887.144	154.861
888.194	137.484
889.243	147.528
890.293	144.242
891.344	148.935
892.393	143.537
893.442	152.078
894.491	138.579
895.54	146.422
896.589	149.647
897.638	146.931
898.688	133.6
899.736	154.813
900.785	142.777
901.833	137.381
902.881	143.282
903.929	153.85
904.977	145.872
906.026	134.578
907.074	143.814
908.122	144.406
909.169	149.634
910.217	149.587
911.264	121.773
912.311	129.701
913.358	144.876
914.405	135.535
915.453	139.409
916.5	138.027
917.547	149.254
918.593	153.936
919.639	133.516
920.686	142.138
921.732	135.496
922.778	132.774
923.824	137.295
924.87	142.475
925.916	129.217
926.961	149.618
928.007	140.393
929.052	131.858
930.097	135.209
931.143	132.63
932.188	149.841
933.233	153.836
934.278	150.542
935.322	150.529
936.367	149.189
937.411	147.86
938.456	157.118
939.5	149.242
940.544	152.611
941.588	153.345
942.632	158.704
943.676	147.53
944.72	136.358
945.763	155.666
946.807	147.175
947.85	134.682
948.894	151.352
949.937	152.725
950.98	142.114
952.023	138.133
953.066	145.45
954.108	143.491
955.151	148.207
956.193	142.321
957.236	120.474
958.278	137.895
959.32	135.988
960.362	138.71
961.404	125.389
962.445	144.061
963.488	133.385
964.528	126.059
965.571	130.765
966.611	147.512
967.654	137.57
968.694	120.252
969.734	139.645
970.776	132.951
971.815	131.587
972.857	138.908
973.897	134.218
974.938	136.221
975.978	146.926
977.017	135.617
978.058	141.702
979.097	126.401
980.138	129.127
981.177	136.48
982.218	136.401
983.256	145.621
984.294	121.449
985.335	151.362
986.373	133.317
987.414	142.656
988.451	132.674
989.489	141.991
990.529	133.254
991.567	147.112
992.607	146.961
993.644	135.544
994.681	142.121
995.721	128.812
996.758	136.085
997.797	136.674
998.834	145.149
999.87	137.657
1000.91	144.029
1001.95	145.104
1002.98	145.546
1004.02	154.59
1005.06	150.53
1006.1	134.684
1007.13	146.423
1008.17	151.535
1009.2	138.886
1010.24	141.3
1011.28	131.98
1012.31	119.474
1013.35	135.08
1014.39	138.272
1015.42	143.366
1016.46	150.337
1017.49	131.897
1018.53	139.441
1019.56	145.012
1020.6	128.604
1021.63	135.518
1022.67	144.411
1023.7	135.962
1024.74	156.546
1025.77	141.042
1026.81	145.462
1027.84	145.969
1028.88	145.162
1029.91	144.348
1030.95	146.095
1031.98	152.953
1033.01	133.589
1034.05	148.132
1035.08	146.098
1036.12	144.736
1037.15	143.382
1038.18	144.558
1039.22	155.249
1040.25	137.308
1041.28	143.558
1042.31	150.484
1043.35	145.392
1044.38	149.841
1045.41	149.183
1046.44	145.297
1047.48	148.334
1048.51	159.569
1049.54	155.607
1050.57	151.055
1051.6	153.495
1052.64	143.962
1053.67	149.602
1054.7	143.894
1055.73	155.871
1056.76	148.92
1057.79	157.733
1058.82	155.798
1059.86	153.858
1060.89	141.226
1061.92	146.935
1062.95	153.336
1063.98	150.295
1065.01	147.847
1066.04	155.431
1067.07	152.824
1068.1	160.906
1069.13	145.03
1070.16	143.723
1071.19	151.934
1072.22	140.642
1073.25	156.479
1074.28	145.164
1075.3	143.278
1076.34	146.411
1077.36	144.484
1078.39	128.69
1079.42	144.465
1080.45	138.816
1081.48	157.788
1082.51	136.341
1083.54	134.452
1084.57	144.589
1085.59	140.271
1086.62	151.19
1087.65	141.898
1088.68	150.321
1089.7	139.653
1090.73	147.315
1091.76	136.505
1092.79	142.806
1093.81	148.464
1094.84	130.04
1095.87	124.99
1096.89	133.335
1097.92	136.681
1098.95	138.803
1099.97	140.286
1101	153.218
1102.03	136.085
1103.05	145.74
1104.08	156.669
1105.11	146.492
1106.13	133.097
1107.16	120.961
1108.18	133.78
1109.21	146.618
1110.23	155.003
1111.26	151.226
1112.28	146.145
1113.31	141.039
1114.33	133.364
1115.36	146.23
1116.38	138.604
1117.41	139.331
1118.43	152.899
1119.46	145.256
1120.48	140.821
1121.5	140.897
1122.53	150.638
1123.55	139.122
1124.58	145.607
1125.6	144.984
1126.62	145.002
1127.65	157.284
1128.67	147.669
1129.69	134.828
1130.72	145.855
1131.74	149.794
1132.76	155.696
1133.79	151.932
1134.81	139.75
1135.83	150.167
1136.85	128.15
1137.88	133.897
1138.9	143.474
1139.92	134.952
1140.94	134.213
1141.96	125.77
1142.99	136.714
1144.01	135.443
1145.03	143.888
1146.05	138.163
1147.07	133.719
1148.09	142.159
1149.11	147.961
1150.14	144.023
1151.16	137.491
1152.18	147.105
1153.2	141.255
1154.22	145.095
1155.24	149.579
1156.26	141.811
1157.28	135.98
1158.3	142.392
1159.32	133.329
1160.34	142.917
1161.36	135.747
1162.38	130.523
1163.4	137.551
1164.42	139.476
1165.44	122.126
1166.45	124.66
1167.47	138.034
1168.49	137.847
1169.51	137.005
1170.53	128.53
1171.55	143.772
1172.57	136.049
1173.59	140.462
1174.61	149.933
1175.62	138.304
1176.64	113.318
1177.66	137.388
1178.68	133.517
1179.7	135.417
1180.71	147.491
1181.73	134.723
1182.75	125.083
1183.76	145.231
1184.78	138.088
1185.8	136.035
1186.82	139.046
1187.83	145.194
1188.85	141.864
1189.87	133.529
1190.88	138.486
1191.9	140.368
1192.91	139.151
1193.93	140.452
1194.95	155.56
1195.97	142.262
1196.98	138.994
1198	141.369
1199.01	138.732
1200.03	141.149
1201.04	131.683
1202.06	132.904
1203.07	144.16
1204.09	124.695
1205.1	150.942
1206.12	138.944
1207.13	136.936
1208.15	137.406
1209.16	139.735
1210.17	141.442
1211.19	141.302
1212.2	130.623
1213.22	138.017
1214.23	132.997
1215.25	134.824
1216.26	135.414
1217.27	126.696
1218.29	151.523
1219.3	137.85
1220.31	133.478
1221.33	136.528
1222.34	138.928
1223.35	141.934
1224.37	134.422
1225.38	143.053
1226.39	132.53
1227.4	142.478
1228.42	140.046
1229.43	140.071
1230.44	154.308
1231.45	146.811
1232.47	138.68
1233.48	142.943
1234.49	143.524
1235.5	147.851
1236.51	129.926
1237.52	138.608
1238.53	141.725
1239.54	136.805
1240.56	136.852
1241.57	125.754
1242.58	140.044
1243.59	130.764
1244.6	141.92
1245.61	141.318
1246.62	138.903
1247.63	137.775
1248.64	148.468
1249.65	123.718
1250.66	139.937
1251.67	140.559
1252.68	134.314
1253.69	141.13
1254.7	138.633
1255.71	144.843
1256.72	146.695
1257.73	136.743
1258.74	133.661
1259.75	138.089
1260.75	148.161
1261.76	140.17
1262.77	134.613
1263.78	127.759
1264.79	130.873
1265.8	145.871
1266.8	129.747
1267.81	146.071
1268.82	141.764
1269.83	135.524
1270.84	145.497
1271.85	143.63
1272.85	148.057
1273.86	140.011
1274.87	126.935
1275.87	128.196
1276.88	140.056
1277.89	136.909
1278.9	146.278
1279.9	132.522
1280.91	144.375
1281.91	122.462
1282.92	128.674
1283.93	140.542
1284.93	139.351
1285.94	131.952
1286.95	138.944
1287.95	132.758
1288.96	129.646
1289.96	129.614
1290.97	137.711
1291.97	137.058
1292.98	131.426
1293.98	132.704
1294.99	136.504
1296	127.784
1297	137.846
1298	130.971
1299.01	140.356
1300.01	138.427
1301.02	133.974
1302.02	145.803
1303.03	115.122
1304.03	139.559
1305.04	131.501
1306.04	132.828
1307.04	129.712
1308.05	127.764
1309.05	142.638
1310.05	135.58
1311.06	136.688
1312.06	127.26
1313.06	129.136
1314.07	134.19
1315.07	137.416
1316.07	134.42
1317.07	132.672
1318.08	140.28
1319.08	135.288
1320.08	117.06
1321.08	137.58
1322.09	126.206
1323.09	139.276
1324.09	122.448
1325.09	145.65
1326.09	132.563
1327.1	131.889
1328.1	140.503
1329.1	131.611
1330.1	120.909
1331.1	133.336
1332.1	125.872
1333.1	124.646
1334.1	135.24
1335.11	125.248
1336.1	136.441
1337.11	127.093
1338.11	138.945
1339.11	135.22
1340.11	131.474
1341.11	130.197
1342.11	128.907
1343.11	133.843
1344.11	130.692
1345.11	124.436
1346.1	130.007
1347.1	131.854
1348.1	134.965
1349.1	126.277
1350.1	139.373
1351.1	133.18
1352.1	118.26
1353.1	128.855
1354.1	143.194
1355.1	130.15
1356.09	128.313
1357.09	142.037
1358.09	126.455
1359.09	128.914
1360.09	135.098
1361.09	142.539
1362.08	128.846
1363.08	138.212
1364.08	125.799
1365.07	138.291
1366.07	131.451
1367.07	136.412
1368.07	137.594
1369.06	122.572
1370.06	127.472
1371.06	134.276
1372.05	138.034
1373.05	133.135
1374.05	130.717
1375.04	127.004
1376.04	133.188
1377.04	133.727
1378.03	133.024
1379.03	139.819
1380.02	129.885
1381.02	124.958
1382.01	123.15
1383.01	133.778
1384.01	136.292
1385	122.593
1386	121.941
1386.99	129.997
1387.99	125.008
1388.98	129.367
1389.98	129.372
1390.97	129.973
1391.97	140.489
1392.96	123.644
1393.95	119.256
1394.95	128.571
1395.94	149.729
1396.94	146.051
1397.93	119.353
1398.92	125.574
1399.92	128.669
1400.91	136.729
1401.91	143.545
1402.9	148.492
1403.89	121.126
1404.88	135.993
1405.88	131.608
1406.87	128.486
1407.86	127.263
1408.86	138.496
1409.85	129.868
1410.84	137.996
1411.83	121.837
1412.83	134.856
1413.82	133.576
1414.81	134.812
1415.8	135.455
1416.79	128.627
1417.79	114.905
1418.78	130.907
1419.77	114.596
1420.76	128.028
1421.75	121.722
1422.74	124.781
1423.73	124.21
1424.73	124.29
1425.72	127.446
1426.71	141.074
1427.7	125.562
1428.69	129.171
1429.68	135.809
1430.67	127.591
1431.66	132.301
1432.65	136.396
1433.64	128.271
1434.63	136.815
1435.62	129.495
1436.61	127.737
1437.6	134.559
1438.59	125.342
1439.58	129.574
1440.57	127.629
1441.55	118.332
1442.54	133.567
1443.53	121.228
1444.52	130.298
1445.51	131.995
1446.5	122.703
1447.49	130.537
1448.48	128.649
1449.46	133.498
1450.45	121.283
1451.44	123.072
1452.43	123.625
1453.42	121.132
1454.4	129.599
1455.39	127.116
1456.38	119.153
1457.37	147.631
1458.35	128.087
1459.34	127.985
1460.33	129.721
1461.32	128.451
1462.3	111.445
1463.29	120.477
1464.28	131.906
1465.26	118.534
1466.25	128.182
1467.24	134.254
1468.22	122.218
1469.21	145.882
1470.19	134.393
1471.18	127.072
1472.17	128.773
1473.15	122.599
1474.14	125.51
1475.12	121.231
1476.11	130.879
1477.09	116.427
1478.08	126.083
1479.06	122.415
1480.05	132.563
1481.03	125.831
1482.02	128.783
1483	130.001
1483.99	140.297
1484.97	110.233
1485.96	124.691
1486.94	129.464
1487.92	123.392
1488.91	126.982
1489.89	129.41
1490.88	136.678
1491.86	124.061
1492.84	119.843
1493.83	125.842
1494.81	119.209
1495.79	126.468
1496.78	122.33
1497.76	112.146
1498.74	124.823
1499.73	133.223
1500.71	128.326
1501.69	119.825
1502.67	116.78
1503.66	125.217
1504.64	116.839
1505.62	130.178
1506.6	118.225
1507.58	126.173
1508.57	126.26
1509.55	123.892
1510.53	123.302
1511.51	117.256
1512.49	128.745
1513.47	129.98
1514.45	120.955
1515.44	138.561
1516.42	121.698
1517.4	123.615
1518.38	126.761
1519.36	126.261
1520.34	128.764
1521.32	126.98
1522.3	139.768
1523.28	120.365
1524.26	124.694
1525.24	117.478
1526.22	116.335
1527.2	123.707
1528.18	126.817
1529.16	126.291
1530.14	109.914
1531.12	119.799
1532.1	123.566
1533.08	129.139
1534.06	129.18
1535.04	122.482
1536.02	131.119
1536.99	117.726
1537.97	114.763
1538.95	117.932
1539.93	125.992
1540.91	127.862
1541.89	110.63
1542.86	123.482
1543.84	116.67
1544.82	124.014
1545.8	128.346
1546.78	128.437
1547.75	123.63
1548.73	108.941
1549.71	110.805
1550.69	118.15
1551.66	112.541
1552.64	133.993
1553.62	119.828
1554.6	116.762
1555.57	118.621
1556.55	107.552
1557.52	117.34
1558.5	119.719
1559.48	122.092
1560.45	122.653
1561.43	128.176
1562.41	120.866
1563.38	125.844
1564.36	116.675
1565.33	103.768
1566.31	121.502
1567.29	127.519
1568.26	126.77
1569.24	123.581
1570.21	114.919
1571.19	112.42
1572.16	122.807
1573.14	124.705
1574.11	126.64
1575.08	123.661
1576.06	115.712
1577.03	121.751
1578.01	116.099
1578.98	131.799
1579.96	115.794
1580.93	107.78
1581.91	114.409
1582.88	116.779
1583.85	113.67
1584.83	124.546
1585.8	121.481
1586.77	116.644
1587.75	122.171
1588.72	131.347
1589.69	111.291
1590.67	125.237
1591.64	124.571
1592.61	121.508
1593.58	122.149
1594.56	119.18
1595.53	105.856
1596.5	121.072
1597.47	130.133
1598.45	116.654
1599.42	112.901
1600.39	115.232
1601.36	116.367
1602.33	104.798
1603.31	115.667
1604.28	121.111
1605.25	125.377
1606.22	115.734
1607.19	116.996
1608.16	114.606
1609.13	113.407
1610.1	107.342
1611.08	115.219
1612.05	112.787
1613.02	126.119
1613.99	110.342
1614.96	109.115
1615.93	111.53
1616.9	105.474
1617.87	107.319
1618.84	120.104
1619.81	132.909
1620.78	112.32
1621.75	115.374
1622.72	110.503
1623.69	117.154
1624.66	109.856
1625.63	118.369
1626.59	125.09
1627.56	111.17
1628.53	113.03
1629.5	120.96
1630.47	115.522
1631.44	112.528
1632.41	104.668
1633.37	116.877
1634.34	120.537
1635.31	111.393
1636.28	103.482
1637.25	113.884
1638.22	98.1508
1639.18	108.058
1640.15	114.936
1641.12	118.119
1642.09	107.779
1643.05	102.292
1644.02	108.434
1644.99	112.147
1645.95	118.349
1646.92	111.705
1647.89	109.98
1648.86	120.548
1649.82	105.875
1650.79	105.322
1651.76	110.914
1652.72	103.57
1653.69	107.956
1654.65	101.871
1655.62	106.907
1656.59	98.9593
1657.55	99.6609
1658.52	112.756
1659.48	109.754
1660.45	109.845
1661.41	111.169
1662.38	107.527
1663.34	119.455
1664.31	112.135
1665.27	106.68
1666.24	109.301
1667.2	114.365
1668.17	105.001
1669.13	121.247
1670.1	110.02
1671.06	120.085
1672.03	116.41
1672.99	102.073
1673.95	101.489
1674.92	94.6357
1675.88	100.961
1676.85	100.412
1677.81	114.948
1678.77	104.352
1679.74	104.413
1680.7	120.802
1681.66	110.729
1682.63	113.202
1683.59	115.65
1684.55	106.163
1685.52	95.4639
1686.48	103.656
1687.44	103.096
1688.4	105.69
1689.37	115.814
1690.33	105.12
1691.29	106.345
1692.25	110.075
1693.21	99.9967
1694.17	102.542
1695.14	117.718
1696.1	111.495
1697.06	106.469
1698.02	110.855
1698.98	95.087
1699.94	107.039
1700.91	108.92
1701.87	105.753
1702.83	100.688
1703.79	108.845
1704.75	96.9044
1705.71	105.141
1706.67	98.2825
1707.63	95.1711
1708.59	109.026
1709.55	102.674
1710.51	108.917
1711.47	112.039
1712.43	103.24
1713.39	109.565
1714.35	108.325
1715.31	101.393
1716.27	110.814
1717.23	103.225
1718.19	103.814
1719.15	103.761
1720.11	103.695
1721.07	101.114
1722.03	93.5301
1722.98	99.1624
1723.94	106.084
1724.9	102.983
1725.86	101.763
1726.82	102.415
1727.78	104.31
1728.73	101.796
1729.69	106.179
1730.65	96.0879
1731.61	106.063
1732.57	107.851
1733.52	98.9894
1734.48	103.311
1735.44	106.402
1736.4	112.004
1737.35	108.842
1738.31	106.929
1739.27	97.527
1740.22	105.021
1741.18	98.1405
1742.14	103.731
1743.1	99.8913
1744.05	100.369
1745.01	103.934
1745.96	110.615
1746.92	106.787
1747.88	98.6831
1748.83	99.3114
1749.79	97.4663
1750.74	100.572
1751.7	99.3056
1752.66	113.524
1753.61	104.771
1754.57	101.606
1755.52	117.654
1756.48	101.519
1757.43	100.256
1758.39	94.0375
1759.34	100.168
1760.3	99.4678
1761.25	104.934
1762.21	101.778
1763.16	104.214
1764.12	102.368
1765.07	106.082
1766.02	106.692
1766.98	96.1707
1767.93	110.28
1768.88	110.825
1769.84	94.1614
1770.79	100.31
1771.75	100.337
1772.7	95.4462
1773.65	107.156
1774.61	102.801
1775.56	110.084
1776.51	109.347
1777.47	101.896
1778.42	94.5209
1779.37	107.475
1780.33	103.886
1781.28	100.883
1782.23	99.6615
1783.18	93.461
1784.13	101.986
1785.09	100.685
1786.04	101.873
1786.99	95.7247
1787.94	103.087
1788.89	104.312
1789.85	101.859
1790.8	108.017
1791.75	108.678
1792.7	101.99
1793.65	98.3752
1794.6	99.0669
1795.55	91.7602
1796.5	104.789
1797.46	98.7074
1798.4	111.722
1799.36	99.9967
1800.31	103.653
1801.26	98.0276
1802.21	91.1761
1803.16	79.4228
1804.11	100.32
1805.06	92.3109
1806.01	102.176
1806.96	97.2896
1807.91	94.8673
1808.86	101.057
1809.81	101.059
1810.75	100.42
1811.7	98.5357
1812.65	104.041
1813.6	99.0941
1814.55	99.0932
1815.5	104.042
1816.45	104.087
1817.4	100.439
1818.35	98.0069
1819.3	94.9277
1820.24	95.5196
1821.19	97.3351
1822.14	93.009
1823.09	94.8785
1824.04	99.8638
1824.98	85.1266
1825.93	94.4296
1826.88	99.3969
1827.83	90.7718
1828.78	112.419
1829.72	92.0822
1830.67	87.8063
1831.62	93.4068
1832.56	87.2243
1833.51	99.5778
1834.46	95.2389
1835.4	90.9356
1836.35	91.6189
1837.3	90.4585
1838.24	92.372
1839.19	89.8937
1840.14	92.3217
1841.08	91.624
1842.03	87.2251
1842.98	90.9006
1843.92	90.8975
1844.87	103.901
1845.81	99.5945
1846.76	95.9055
1847.7	84.1731
1848.65	96.5835
1849.59	94.7538
1850.54	82.3761
1851.48	94.7474
1852.43	102.139
1853.37	98.3818
1854.32	96.4984
1855.26	82.2714
1856.21	92.1976
1857.15	95.3467
1858.1	93.5597
1859.04	89.295
1859.98	91.2197
1860.93	75.7374
1861.87	90.6324
1862.82	89.9641
1863.76	92.9905
1864.7	95.4024
1865.65	100.339
1866.59	91.7178
1867.54	96.7883
1868.48	93.8122
1869.42	95.1504
1870.36	97.05
1871.31	73.3906
1872.25	83.9184
1873.19	96.9261
1874.14	96.9004
1875.08	101.855
1876.02	85.6924
1876.96	91.8791
1877.9	89.9979
1878.85	88.1342
1879.79	91.255
1880.73	93.7602
1881.67	94.3841
1882.62	93.7322
1883.56	89.9487
1884.5	84.3028
1885.44	87.3532
1886.38	87.3358
1887.32	94.7805
1888.26	102.239
1889.2	84.2808
1890.15	90.4678
1891.09	89.8221
1892.03	89.7945
1892.97	91.6315
1893.91	84.8048
1894.85	81.6866
1895.79	84.7416
1896.73	97.675
1897.67	85.8877
1898.61	96.377
1899.55	84.0432
1900.49	93.3641
1901.43	85.9893
1902.37	96.522
1903.31	84.7366
1904.25	98.8884
1905.19	95.7177
1906.13	95.0413
1907.07	99.3348
1908.01	80.8242
1908.94	93.7826
1909.88	75.2644
1910.82	81.4117
1911.76	92.4832
1912.7	101.086
1913.64	86.2765
1914.58	85.6498
1915.51	83.797
1916.45	99.2027
1917.39	91.1981
1918.33	88.7344
1919.27	96.1166
1920.2	94.8575
1921.14	83.7412
1922.08	78.1759
1923.02	77.5407
1923.95	81.2056
1924.89	91.6123
1925.83	98.9138
1926.76	89.6298
1927.7	88.9723
1928.64	90.802
1929.57	83.4464
1930.51	85.2855
1931.45	92.0052
1932.38	85.2078
1933.32	90.6639
1934.26	77.7537
1935.2	88.7297
1936.13	80.7333
1937.07	94.7432
1938	81.2433
1938.94	84.8627
1939.87	93.3804
1940.81	93.3706
1941.74	99.4718
1942.68	103.125
1943.62	87.8467
1944.55	85.3652
1945.48	79.212
1946.42	88.8834
1947.35	85.7607
1948.29	91.7709
1949.22	86.8688
1950.16	84.4325
1951.09	86.2722
1952.03	78.3908
1952.96	83.2497
1953.9	79.5719
1954.83	78.9114
1955.76	83.1001
1956.7	84.2654
1957.63	95.7484
1958.57	81.7848
1959.5	97.4884
1960.43	81.0762
1961.37	77.9771
1962.3	92.4117
1963.23	89.3635
1964.17	76.7012
1965.1	76.7416
1966.03	94.9084
1966.96	79.1875
1967.9	90.6208
1968.83	90.5364
1969.76	85.0174
1970.69	83.7373
1971.63	83.082
1972.56	86.0617
1973.49	85.4529
1974.42	92.0858
1975.35	91.5084
1976.29	78.8853
1977.22	89.13
1978.15	86.7087
1979.08	81.8644
1980.01	89.655
1980.94	78.8
1981.88	92.0177
1982.81	83.5892
1983.74	87.1854
1984.67	82.9591
1985.6	88.3529
1986.53	84.7445
1987.46	80.5502
1988.39	87.7789
1989.32	94.3845
1990.25	89.5316
1991.18	88.264
1992.11	84.0061
1993.04	89.9856
1993.97	78.6082
1994.9	79.2525
1995.83	94.9112
1996.76	90.1211
1997.69	79.885
1998.62	84.6332
1999.55	86.3585
2000.48	77.8968
2001.41	75.4541
2002.34	74.8352
2003.27	82.6215
2004.2	87.4283
2005.12	76.0627
2006.05	82.6482
2006.98	86.8183
2007.91	78.4052
2008.84	87.351
2009.77	87.9291
2010.69	77.154
2011.62	87.3105
2012.55	86.088
2013.48	74.6896
2014.41	80.0183
2015.33	92.5166
2016.26	78.779
2017.19	79.9894
2018.12	93.1548
2019.04	87.8023
2019.97	81.8271
2020.9	85.3801
2021.83	81.7462
2022.75	90.6278
2023.68	81.6282
2024.61	85.7637
2025.53	85.7599
2026.46	88.1629
2027.39	76.8653
2028.31	77.4656
2029.24	84.5974
2030.17	79.2072
2031.09	83.9477
2032.02	81.5555
2032.94	71.4295
2033.87	73.7971
2034.79	77.9418
2035.72	87.4483
2036.64	91.0383
2037.57	89.9083
2038.5	76.8749
2039.42	77.5187
2040.35	82.2908
2041.27	67.3383
2042.19	92.2583
2043.12	80.8396
2044.04	77.1801
2044.97	78.8986
2045.89	78.881
2046.82	79.5026
2047.74	81.9386
2048.67	70.1242
2049.59	86.82
2050.51	79.7065
2051.44	84.4642
2052.36	86.2416
2053.28	88.6214
2054.21	83.2776
2055.13	79.1212
2056.05	76.7405
2056.98	81.4896
2057.9	83.8569
2058.83	74.3338
2059.75	83.2481
2060.67	79.0765
2061.59	77.8703
2062.52	73.0924
2063.44	80.199
2064.36	80.182
2065.28	80.1754
2066.21	80.1743
2067.13	75.4186
2068.05	76.5908
2068.97	83.6875
2069.89	65.8586
2070.82	74.742
2071.74	74.7399
2072.66	72.3752
2073.58	77.7254
2074.5	79.5156
2075.42	82.4967
2076.34	81.9285
2077.27	90.8767
2078.19	81.4167
2079.11	75.5046
2080.03	74.3234
2080.95	89.7578
2081.87	81.9789
2082.79	79.5365
2083.71	77.6907
2084.63	77.0565
2085.55	83.5662
2086.47	84.1797
2087.39	71.1715
2088.31	75.96
2089.23	86.6924
2090.15	74.8596
2091.07	77.8723
2091.99	76.119
2092.91	83.2604
2093.83	66.5821
2094.75	74.2554
2095.67	74.201
2096.59	73.5845
2097.51	77.1685
2098.43	79.6059
2099.35	79.6794
2100.26	70.2185
2101.18	87.5184
2102.1	73.2532
2103.02	79.2291
2103.94	84.0114
2104.86	73.2899
2105.77	65.5333
2106.69	79.21
2107.61	77.3966
2108.53	69.045
2109.45	75.5874
2110.36	78.5708
2111.28	76.2078
2112.2	82.7873
2113.12	75.0824
2114.03	73.9343
2114.95	72.7807
2115.87	76.9763
2116.78	85.9086
2117.7	78.1
2118.62	79.8203
2119.54	72.0359
2120.45	64.8984
2121.37	75.0784
2122.28	73.3681
2123.2	71.635
2124.12	78.2145
2125.03	74.005
2125.95	71.5725
2126.87	70.9417
2127.78	72.1207
2128.7	76.2944
2129.61	77.4861
2130.53	85.2156
2131.44	73.2611
