1123.73	199.297
1121.95	189.472
1120.17	186.631
1118.39	197.822
1116.61	201.994
1114.82	210.372
1113.04	183.692
1111.26	182.257
1109.47	206.053
1107.69	218.629
1105.9	184.96
1104.12	196.134
1102.34	190.496
1100.55	204.466
1098.77	184.826
1096.98	205.791
1095.19	198.756
1093.41	181.926
1091.62	181.893
1089.83	181.86
1088.05	220.989
1086.26	215.355
1084.47	191.547
1082.68	184.523
1080.89	208.249
1079.1	192.84
1077.31	210.967
1075.52	189.975
1073.73	195.527
1071.94	201.077
1070.15	188.475
1068.36	198.211
1066.57	207.944
1064.78	195.348
1062.99	196.707
1061.19	209.224
1059.4	185.478
1057.61	202.175
1055.82	207.714
1054.02	188.163
1052.23	220.179
1050.43	200.633
1048.64	222.884
1046.84	214.486
1045.05	233.942
1043.25	226.937
1041.46	264.479
1039.66	274.172
1037.86	271.338
1036.07	333.893
1034.27	351.913
1032.47	371.317
1030.67	383.762
1028.88	403.154
1027.08	410.028
1025.28	429.407
1023.48	486.292
1021.68	469.532
1019.88	518.055
1018.08	513.793
1016.28	524.803
1014.48	577.453
1012.68	584.284
1010.87	625.802
1009.07	635.396
1007.27	642.212
1005.47	698.951
1003.66	725.164
1001.86	794.342
1000.06	844.089
998.253	859.174
996.449	960.154
994.644	1073.56
992.839	1199.39
991.033	1344.56
989.228	1445.37
987.422	1681.8
985.615	1768.67
983.808	1790.47
982.001	1932.62
980.194	1879.7
978.386	1804.66
976.578	1790.5
974.769	1846.83
972.96	1749.73
971.151	1721.76
969.342	1786.37
967.532	1707.3
965.722	1666.92
963.911	1725.98
962.1	1649.72
960.289	1663.2
958.477	1638.05
956.665	1550.81
954.853	1578.1
953.04	1577.8
951.227	1526.48
949.414	1556.52
947.6	1530.03
945.786	1586.24
943.972	1574.91
942.157	1485.06
940.342	1475.13
938.527	1327.5
936.711	1200.58
934.895	1024.15
933.078	871.186
931.261	745.8
929.444	630.093
927.627	550.193
925.809	484.076
923.991	409.735
922.172	398.658
920.353	364.221
918.534	336.667
916.714	368.201
914.894	372.25
913.074	339.217
911.253	321.301
909.432	370.66
907.61	318.431
905.789	334.836
903.966	316.935
902.144	337.449
900.321	337.383
898.498	331.832
896.674	300.236
894.85	309.772
893.026	308.34
891.201	305.54
889.376	293.151
887.551	319.116
885.725	310.837
883.899	317.621
882.073	310.715
880.246	338.024
878.419	288.7
876.591	317.371
874.764	274.909
872.935	281.692
871.107	298.043
869.278	307.552
867.448	307.491
865.619	282.836
863.789	311.468
861.958	300.479
860.128	307.248
858.296	290.803
856.465	282.556
854.633	281.135
852.801	298.817
850.968	289.208
849.135	289.15
847.302	306.82
845.468	297.215
843.634	320.329
841.8	295.734
839.965	305.213
838.13	331.035
836.294	325.521
834.458	333.626
832.622	313.137
830.786	325.325
828.949	300.763
827.111	306.145
825.273	316.967
823.435	344.105
821.597	315.48
819.758	309.978
817.919	309.915
816.079	292.186
814.239	302.997
812.399	300.219
810.558	300.158
808.717	297.382
806.876	281.03
805.034	285.045
803.192	287.702
801.349	275.432
799.506	265.881
797.663	223.783
795.819	250.857
793.975	279.276
792.131	234.49
790.286	249.349
788.441	246.588
786.595	211.318
784.749	274.929
782.903	238.313
781.056	235.557
779.209	219.267
777.362	223.282
775.514	251.648
773.666	221.838
771.817	219.088
769.968	210.93
768.119	170.332
766.269	206.789
764.419	227.016
762.569	225.619
760.718	226.923
758.867	193.115
757.015	195.776
755.163	218.684
753.311	203.793
751.458	197.004
749.605	202.36
747.751	190.179
745.897	187.443
744.043	177.966
742.188	208.933
740.333	184.631
738.478	198.067
736.622	191.291
734.766	195.292
732.909	171.013
731.052	192.518
729.195	172.288
727.337	184.364
725.479	188.362
723.621	207.155
721.762	200.388
719.902	199.001
718.043	193.583
716.183	201.607
714.322	186.783
712.461	198.836
710.6	193.421
708.739	186.666
706.877	193.341
705.014	206.724
703.151	194.602
701.288	207.979
699.425	228.059
697.561	197.163
695.696	225.281
693.832	226.575
691.967	243.953
690.101	188.957
688.235	249.21
686.369	246.478
684.502	251.784
682.635	258.426
680.768	271.758
678.9	266.348
677.032	286.364
675.163	283.628
673.294	296.944
671.424	312.929
669.555	308.852
667.684	308.787
665.814	315.404
663.943	275.252
662.071	293.897
660.2	293.834
658.327	279.084
656.455	244.314
654.582	253.605
652.708	276.238
650.835	253.498
648.96	270.785
647.086	252.057
645.211	284.004
643.336	254.616
641.46	266.557
639.584	258.505
637.707	261.115
635.83	265.055
633.953	250.351
632.075	251.629
630.197	280.859
628.318	268.822
626.439	294.045
624.56	292.652
622.68	317.859
620.8	315.132
618.919	331.017
617.038	308.352
615.157	334.862
613.275	341.434
611.393	264.322
609.511	301.449
607.628	262.881
605.744	242.914
603.86	237.554
601.976	237.503
600.092	220.207
598.207	251.99
596.321	247.958
594.435	190.9
592.549	196.161
590.663	223.947
588.776	213.3
586.888	215.903
585	226.451
583.112	225.078
581.223	217.088
579.334	218.365
577.445	215.671
575.555	210.334
573.665	220.869
571.774	239.333
569.883	253.824
567.992	253.769
566.1	266.929
564.207	274.798
562.315	273.418
560.422	291.847
558.528	302.347
556.634	336.602
554.74	362.924
552.845	398.47
550.95	401.023
549.054	466.879
547.158	510.292
545.262	535.229
543.365	632.647
541.468	665.454
539.57	749.626
537.672	866.691
535.774	1087.74
533.875	1300.79
531.976	1674.34
530.076	2324.09
528.176	3590.65
526.276	7054.77
524.375	16661.9
522.473	32129.2
520.572	49139.7
518.67	46242.8
516.767	21651.2
514.864	8284.47
512.961	4323.91
511.057	2720.9
509.153	1891.87
507.248	1442.55
505.343	1148.28
503.438	955.162
501.532	780.492
499.626	684.586
497.719	626.745
495.812	584.66
493.904	533.42
491.996	528.062
490.088	487.336
488.179	446.628
486.27	475.34
484.361	420.25
482.451	400.525
480.54	369.032
478.629	366.335
476.718	363.639
474.806	330.866
472.894	329.486
470.982	300.656
469.069	284.908
467.156	303.139
465.242	309.605
463.328	267.743
461.413	244.181
459.498	242.823
457.583	272.79
455.667	285.78
453.751	280.499
451.834	290.873
449.917	305.155
448	336.379
446.082	327.182
444.163	336.233
442.245	345.281
440.326	339.995
438.406	407.645
436.486	395.837
434.566	407.468
432.645	411.284
430.724	430.713
428.802	426.716
426.88	418.82
424.957	421.329
423.034	400.436
421.111	387.351
419.187	432.751
417.263	420.963
415.339	424.769
413.414	414.287
411.488	423.286
409.562	416.703
407.636	439.974
405.709	417.82
403.782	402.161
401.855	407.262
399.927	409.767
397.999	407.085
396.07	410.885
394.141	399.133
392.211	448.28
390.281	444.297
388.351	429.955
386.42	413.029
384.489	437.535
382.557	450.382
380.625	430.876
378.692	474.766
376.759	472.077
374.826	469.388
372.892	444.723
370.958	449.797
369.023	466.499
367.088	474.149
365.153	485.672
363.217	486.858
361.281	502.246
359.344	471.158
357.407	477.508
355.469	454.18
353.531	513.422
351.593	477.199
349.654	465.491
347.715	492.463
345.775	466.579
343.835	505.136
341.895	470.242
339.954	459.836
338.012	477.766
336.071	496.976
334.128	489.145
332.186	487.753
330.243	486.361
328.299	501.693
326.356	513.16
324.411	504.049
322.467	480.801
320.522	501.262
318.576	520.429
316.63	524.172
314.684	571.584
312.737	593.293
310.79	566.203
308.842	607.158
306.894	622.428
304.946	683.883
302.997	704.261
301.048	691.285
299.098	700.113
297.148	656.376
295.197	598.558
293.246	574.083
291.295	598.303
289.343	535.411
287.391	495.598
285.438	478.848
283.485	451.864
281.532	453.048
279.578	429.92
277.624	404.243
275.669	376.02
273.714	375.94
271.759	343.899
269.803	362.998
267.846	375.7
265.89	371.788
263.932	378.096
261.975	413.774
260.017	360.06
258.058	337.006
256.1	340.764
254.14	308.792
252.181	318.932
250.221	293.356
248.26	322.623
246.299	284.308
244.338	291.896
242.376	291.834
240.414	291.773
238.451	291.711
236.488	287.829
234.525	277.582
232.561	281.343
230.597	290.194
228.632	306.675
226.667	288.8
224.702	248.036
222.736	289.951
220.77	283.533
218.803	287.287
216.836	315.187
214.869	326.557
212.901	377.305
210.932	438.192
208.964	516.832
206.994	589.092
205.025	764.137
203.055	944.186
201.085	1097.52
199.114	1177.21
197.143	1107.21
195.171	900.292
193.199	676.981
191.227	527.277
189.254	472.677
187.281	471.313
185.307	561.152
183.333	701.613
181.359	890.131
179.384	838.045
177.409	546.769
175.433	331.537
173.457	288.454
171.48	303.574
169.504	299.718
167.526	275.634
165.549	274.313
163.571	259.091
161.592	255.248
159.613	238.772
157.634	250.092
155.654	242.464
153.674	231.052
151.694	227.218
149.713	248.627
147.732	233.435
145.75	237.173
143.768	250.999
141.785	218.161
139.802	235.769
137.819	260.932
135.835	248.277
133.851	241.927
131.867	277.152
129.882	240.571
127.897	259.412
125.911	232.92
123.925	280.708
121.939	281.91
119.952	283.113
117.965	284.314
115.977	280.485
113.989	313.125
112.001	383.471
110.012	546.809
108.023	970.238
106.033	1791.82
104.043	2761.33
102.053	2242.04
100.062	993.336
98.0706	482.132
96.0791	278.678
94.0872	225.911
92.0948	154.342
90.1021	126.712
88.109	86.5486
86.1155	75.245
84.1217	56.4228
82.1274	47.6367
80.1328	26.3205
78.1377	25.0623
76.1423	21.2988
74.1465	12.5263
72.1503	27.5526
70.1538	13.7736
68.1568	18.7786
66.1595	28.7884
64.1618	25.0286
62.1637	35.0334
60.1652	20.0153
58.1663	16.2593
56.1671	12.5048
54.1675	22.5044
52.1675	17.5001
50.1671	14.9972
48.1664	14.9944
46.1653	6.24649
44.1638	11.2416
42.1619	16.2348
40.1596	17.4803
